"","Run Index","Plate","Directory","SampleName","Plate Position","Rack #","Location","leaf_type","dried","3MSO_5.2","OH-Alkenyl_6","4MSO_7.1","Allyl_7.4","5MSO_10.2","Butenyl_12.1","Junk_13","3MT_13.6","MSOO_13.8","OH I3M_15.1","4MT _15.5","Flavonol_16.1","I3M_16.7","Flavonol_17.5","Flavonol_18.5","Junk_18.7","Indole_18.8","Population","mf","treatment","biomass","Elevation","Lat","Long","Seed.year"
"1",2,1,"004-P1-B1-056.D","NA","P1-B-01","D1",1,"induced",NA,NA,NA,36.58859,NA,NA,152.43221,NA,NA,NA,NA,NA,34.75586,25.46206,6.93054,9.44801,NA,NA,"CP2",13,"C",0.24,2244.132886,38.66169,-120.13065,2020
"2",4,1,"006-P1-D1-058.D","NA","P1-D-01","D1",2,"induced",NA,NA,NA,36.96466,18.29848,28.06921,973.66455,NA,NA,14.32415,NA,NA,22.21723,73.05537,7.8762,8.65733,NA,NA,"CP2",11,"C",0.3,2244.132886,38.66169,-120.13065,2020
"3",6,1,"008-P1-F1-060.D","NA","P1-F-01","D1",3,"induced",NA,112.63695,NA,NA,495.65314,NA,15.05947,NA,62.75551,NA,NA,NA,17.07449,11.7095,NA,25.30813,NA,NA,"IH",10,"C",0.28,454.1298385,39.09332,-120.92114,2020
"4",8,1,"010-P1-H1-062.D","NA","P1-H-01","D1",4,"induced",NA,NA,NA,42.52415,NA,23.82374,848.00671,NA,NA,NA,NA,8.73679,35.5279,37.21616,14.42536,11.97278,NA,NA,"CP2",1,"C",0.32,2244.132886,38.66169,-120.13065,2020
"5",10,1,"012-P1-B2-064.D","NA","P1-B-02","D1",5,"induced",NA,57.38611,NA,NA,1207.5293,45.01324,16.90826,NA,NA,53.88432,5.87268,NA,21.65887,210.47545,NA,15.55503,NA,NA,"SQ2",14,"C",0.19,1934.45122,36.66557,-118.83543,2021
"6",12,1,"014-P1-D2-066.D","NA","P1-D-02","D1",6,"induced",NA,36.59916,NA,14.42173,363.70395,NA,258.29602,NA,28.64133,52.74619,NA,NA,11.586,82.28701,NA,26.99667,NA,NA,"LC",8,"C",0.22,1362.3,39.31897,-120.65744,2022
"7",14,1,"016-P1-F2-068.D","NA","P1-F-02","D1",7,"induced",NA,NA,NA,46.04654,NA,25.61493,332.21231,NA,NA,10.25078,NA,NA,NA,30.26018,NA,25.19355,NA,52.30389,"WL3",14,"C",0.06,2137.762877,38.83528,-120.23824,2020
"8",16,1,"018-P1-H2-070.D","NA","P1-H-02","D1",8,"induced",NA,21.13113,56.23473,NA,1680.75964,30.32014,272.91623,NA,7.87772,32.61434,45.00288,10.03631,24.18079,236.89232,12.06604,27.42198,NA,11.15895,"SQ2",20,"CW",0.24,1934.45122,36.66557,-118.83543,2021
"9",18,1,"020-P1-B3-072.D","NA","P1-B-03","D1",9,"induced",NA,NA,NA,74.39651,NA,16.00237,658.50305,NA,NA,25.17309,NA,16.78879,44.8307,55.56231,34.66566,18.14363,NA,NA,"CP2",2,"C",0.38,2244.132886,38.66169,-120.13065,2020
"10",20,1,"022-P1-D3-074.D","NA","P1-D-03","D1",10,"induced",NA,NA,NA,29.0639,NA,18.63766,679.54559,NA,NA,NA,NA,NA,41.01753,33.97436,NA,9.30078,NA,NA,"CP2",11,"CW",0.12,2244.132886,38.66169,-120.13065,2020
"11",22,1,"024-P1-F3-076.D","NA","P1-F-03","D1",11,"induced",NA,NA,NA,183.31104,12.27459,15.18577,1437.84912,NA,NA,143.41393,NA,16.03297,29.05006,24.00856,7.76045,20.33657,NA,NA,"LV1",9,"C",0.26,2593.416641,40.47471,-121.50486,2018
"12",24,1,"026-P1-H3-078.D","NA","P1-H-03","D1",12,"induced",NA,NA,NA,19.23649,12.04793,NA,1182.14868,NA,NA,58.84094,NA,18.86548,42.86823,NA,NA,42.68518,NA,63.03893,"LV1",13,"C",0.29,2593.416641,40.47471,-121.50486,2018
"13",26,1,"028-P1-B4-080.D","NA","P1-B-04","D1",13,"induced",NA,27.78997,NA,45.51201,88.07706,NA,305.2868,NA,54.20429,12.40868,NA,15.87269,24.52774,182.27005,NA,13.3507,NA,NA,"CALO",14,"C",0.17,1117.6,39.19494,-120.77055,2022
"14",28,1,"030-P1-D4-082.D","NA","P1-D-04","D1",14,"induced",NA,20.15581,NA,33.56804,42.2215,NA,191.57762,NA,42.85421,6.24709,NA,28.3553,22.23578,29.39487,NA,12.53824,NA,NA,"CALO",3,"C",0.21,1117.6,39.19494,-120.77055,2022
"15",30,1,"032-P1-F4-084.D","NA","P1-F-04","D1",15,"induced",NA,NA,146.93394,NA,NA,39.54115,1180.94446,NA,NA,7.24676,NA,NA,13.8113,48.14072,NA,14.56241,NA,NA,"WL1",9,"CW",0.24,1613.837245,38.78608,-120.2143,2020
"16",31,1,"033-P1-G4-085.D","NA","P1-G-04","D1",16,"induced",NA,74.59087,NA,14.12745,400.09747,9.84631,235.57434,NA,27.72388,61.83368,171.13037,NA,20.23449,133.13666,30.59635,86.28404,NA,5.29035,"LC",8,"CW",0.2,1362.3,39.31897,-120.65744,2022
"17",33,1,"035-P1-A5-087.D","NA","P1-A-05","D1",17,"induced",NA,NA,NA,NA,13.22279,NA,605.31891,NA,NA,36.53088,NA,NA,21.08639,NA,29.32444,53.28517,NA,5.29461,"LV2",5,"C",0.2,2500.457178,40.46563,-121.51487,2018
"18",35,1,"037-P1-C5-089.D","NA","P1-C-05","D1",18,"induced",NA,NA,68.92462,24.36056,NA,10.78749,571.64423,NA,NA,NA,NA,NA,6.7296,33.06401,NA,15.68493,NA,NA,"WL2",10,"C",0.25,2020.115818,38.8263,-120.25242,2020
"19",37,1,"039-P1-E5-091.D","NA","P1-E-05","D1",19,"induced",NA,13.74598,NA,NA,1635.01245,80.51949,18.9896,NA,7.17208,18.96675,14.12206,11.20803,13.6157,212.12047,NA,21.82156,NA,NA,"SQ2",9,"C",0.16,1934.45122,36.66557,-118.83543,2021
"20",39,1,"041-P1-G5-093.D","NA","P1-G-05","D1",20,"induced",NA,NA,NA,172.29904,35.46329,45.27237,2562.82007,10.12512,NA,209.30177,NA,28.42655,22.04085,32.16915,11.22656,39.28907,NA,27.69233,"LV2",10,"C",0.11,2500.457178,40.46563,-121.51487,2018
"21",41,1,"043-P1-A6-095.D","NA","P1-A-06","D1",21,"induced",NA,52.77233,NA,NA,1324.87476,50.33435,17.24932,NA,NA,23.63915,NA,NA,42.8695,36.6169,30.37157,49.5448,NA,12.66411,"SQ2",14,"CW",0.14,1934.45122,36.66557,-118.83543,2021
"22",43,1,"045-P1-C6-097.D","NA","P1-C-06","D1",22,"induced",NA,29.4548,NA,46.23318,175.48875,NA,429.05521,NA,29.17409,20.05771,NA,12.41866,30.00908,95.02926,NA,24.89922,5.7242,5.6555,"DPR",3,"C",0.19,1018.591893,39.22846,-120.81518,2020
"23",45,1,"047-P1-E6-099.D","NA","P1-E-06","D1",23,"induced",NA,NA,NA,153.85724,NA,56.13031,897.72888,NA,NA,22.45121,NA,27.01082,23.93227,123.88816,6.41065,12.60687,NA,NA,"CP2",1,"CW",0.52,2244.132886,38.66169,-120.13065,2020
"24",47,1,"049-P1-G6-101.D","NA","P1-G-06","D1",24,"induced",NA,NA,NA,124.75429,NA,24.53423,520.96783,NA,NA,29.17042,NA,8.25692,11.06586,36.98803,7.49234,23.65588,NA,57.55869,"CP2",1,"C",0.11,2244.132886,38.66169,-120.13065,2020
"25",48,1,"050-P1-H6-102.D","NA","P1-H-06","D1",25,"induced",NA,NA,NA,49.23573,11.98092,15.74996,554.77362,NA,NA,24.73297,NA,18.31303,9.07001,160.1122,NA,13.8859,NA,5.22,"YOSE8",5,"CW",0.2,2590.97836,37.81117,-119.48624,2020
"26",50,1,"052-P1-B7-104.D","NA","P1-B-07","D1",26,"induced",NA,NA,NA,NA,184.92499,NA,467.20676,NA,12.94427,NA,45.22648,8.26966,18.11184,19.06431,NA,30.92433,NA,6.78868,"TM2",10,"CW",0.18,379.1526973,39.59255,-121.55072,2020
"27",52,1,"054-P1-D7-106.D","NA","P1-D-07","D1",27,"induced",NA,28.55625,NA,NA,919.09351,30.56679,9.43718,NA,21.86027,37.95572,NA,8.46638,16.17222,71.37461,NA,27.88775,NA,NA,"SQ1",2,"C",0.27,1921.036585,36.56435,-118.7764,2017
"28",54,1,"056-P1-F7-108.D","NA","P1-F-07","D1",28,"induced",NA,NA,NA,198.04428,38.0809,44.98935,1562.80798,8.69126,10.96738,254.03065,NA,96.28424,25.33951,142.88864,11.83472,19.8246,NA,6.28223,"LV1",4,"C",0.15,2593.416641,40.47471,-121.50486,2018
"29",56,1,"058-P1-H7-110.D","NA","P1-H-07","D1",29,"induced",NA,9.91459,NA,92.22476,14.21159,NA,195.07928,NA,12.42685,9.40664,5.43054,22.10736,12.70533,63.38177,NA,14.4873,NA,6.40564,"TFC",1,"C",NA,1085,39.42772,-120.93623,2021
"30",58,1,"060-P1-B8-112.D","NA","P1-B-08","D1",30,"induced",NA,39.88552,NA,22.99538,264.40945,NA,147.19353,NA,13.5635,34.98003,NA,NA,7.341,230.81564,NA,33.27124,NA,5.51588,"LC",8,"C",0.25,1362.3,39.31897,-120.65744,2022
"31",59,1,"061-P1-C8-113.D","NA","P1-C-08","D1",31,"induced",NA,NA,NA,10.39115,25.42413,14.68608,1420.86621,7.50873,NA,66.89625,19.11372,9.13355,27.06037,36.84608,NA,34.31467,NA,17.38336,"LV2",4,"CW",0.19,2500.457178,40.46563,-121.51487,2018
"32",61,1,"063-P1-E8-115.D","NA","P1-E-08","D1",32,"induced",NA,61.47251,NA,72.23001,158.40591,NA,378.20834,NA,99.78745,10.12743,NA,39.44743,11.28349,61.01111,NA,26.86492,NA,5.42003,"KC2",3,"CW",0.41,948.1707317,36.82301,-118.83542,2017
"33",63,1,"065-P1-G8-117.D","NA","P1-G-08","D1",33,"induced",NA,46.85078,NA,NA,1064.22058,50.77152,15.43417,NA,8.51176,8.29863,NA,7.05881,8.041,82.59296,NA,16.27663,NA,6.05731,"SQ2",20,"C",0.27,1934.45122,36.66557,-118.83543,2021
"34",64,1,"066-P1-H8-118.D","NA","P1-H-08","D1",34,"induced",NA,23.38552,NA,31.35877,62.1262,NA,155.04837,NA,14.85751,NA,NA,6.45784,15.73882,158.88307,NA,17.2972,NA,6.43004,"CALO",3,"CW",0.11,1117.6,39.19494,-120.77055,2022
"35",66,1,"068-P1-B9-120.D","NA","P1-B-09","D1",35,"induced",NA,NA,NA,NA,496.17709,20.70114,NA,NA,NA,6.80186,NA,NA,NA,49.73274,NA,23.45775,NA,43.21574,"SQ2",15,"C",0.16,1934.45122,36.66557,-118.83543,2021
"36",68,1,"070-P1-D9-122.D","NA","P1-D-09","D1",36,"induced",NA,24.80297,NA,26.2974,274.66934,NA,383.35526,NA,33.93338,22.79669,NA,9.81245,13.10711,125.99339,NA,25.82839,21.16726,6.65563,"LC",7,"C",0.32,1362.3,39.31897,-120.65744,2022
"37",70,1,"072-P1-F9-124.D","NA","P1-F-09","D1",37,"induced",NA,NA,NA,89.97781,25.20755,20.9144,1295.37439,8.15353,NA,128.17426,NA,11.76367,9.20591,31.49908,7.56721,19.88856,NA,6.39655,"LV1",19,"C",0.3,2593.416641,40.47471,-121.50486,2018
"38",72,1,"074-P1-H9-126.D","NA","P1-H-09","D1",38,"induced",NA,34.21106,NA,36.66428,111.02053,NA,228.96861,NA,26.00937,NA,NA,14.58607,6.17876,8.48005,NA,21.98944,NA,7.77715,"RB",1,"C",0.16,787,40.01362,-121.18498,2010
"39",74,1,"076-P1-B10-128.D","NA","P1-B-10","D1",39,"induced",NA,NA,NA,NA,68.07956,NA,354.73969,NA,12.11014,NA,NA,7.33754,14.80138,NA,NA,48.42652,NA,20.99249,"TM2",4,"C",0.29,379.1526973,39.59255,-121.55072,2020
"40",75,1,"077-P1-C10-129.D","NA","P1-C-10","D1",40,"induced",NA,15.28263,NA,NA,1081.54187,72.53551,14.44836,NA,17.25307,13.2694,NA,10.15644,15.44018,125.31872,NA,26.86713,NA,6.70299,"SQ2",12,"C",0.19,1934.45122,36.66557,-118.83543,2021
"41",77,1,"079-P1-E10-131.D","NA","P1-E-10","D1",41,"induced",NA,NA,NA,NA,12.11329,NA,401.80206,NA,NA,6.55912,NA,10.7907,14.64653,NA,NA,12.73926,NA,5.05331,"MtSH",9,"C",0.15,1282,38.66767778,-122.6272806,2022
"42",79,1,"081-P1-G10-133.D","NA","P1-G-10","D1",42,"induced",NA,NA,NA,82.67404,14.52855,52.10976,1390.60022,9.17773,NA,10.26663,NA,7.0485,28.83949,205.15193,18.16978,30.87436,NA,6.63301,"CP2",1,"CW",0.2,2244.132886,38.66169,-120.13065,2020
"43",80,1,"082-P1-H10-134.D","NA","P1-H-10","D1",43,"induced",NA,20.3854,NA,20.47568,70.10498,NA,267.14212,NA,39.88237,NA,NA,12.16709,24.19335,125.94499,NA,15.68832,NA,6.52217,"CALO",14,"CW",0.17,1117.6,39.19494,-120.77055,2022
"44",82,1,"084-P1-B11-136.D","NA","P1-B-11","D1",44,"induced",NA,14.81113,NA,NA,359.88889,NA,29.24652,NA,31.3145,8.4459,NA,NA,13.86213,11.20167,NA,28.27715,NA,9.8219,"BH",9,"C",0.19,511.4294422,37.40985,-119.96458,2018
"45",84,1,"086-P1-D11-138.D","NA","P1-D-11","D1",45,"induced",NA,NA,NA,56.76164,10.04725,NA,217.28288,NA,NA,NA,NA,8.19362,10.53104,159.98459,NA,21.93978,NA,6.04298,"CP2",17,"CW",0.33,2244.132886,38.66169,-120.13065,2020
"46",86,1,"088-P1-F11-140.D","NA","P1-F-11","D1",46,"induced",NA,NA,NA,72.58587,37.42112,14.85392,1058.71924,NA,NA,70.34247,NA,16.90769,24.05205,17.41056,11.01799,12.61582,NA,7.71308,"LV2",8,"C",0.18,2500.457178,40.46563,-121.51487,2018
"47",88,1,"090-P1-H11-142.D","NA","P1-H-11","D1",47,"induced",NA,52.59094,NA,NA,1145.7749,21.08889,17.56382,NA,NA,17.44213,17.46635,9.16538,5.45549,513.66235,16.60606,26.84755,NA,7.56526,"SQ2",20,"C",0.15,1934.45122,36.66557,-118.83543,2021
"48",90,1,"092-P1-B12-144.D","NA","P1-B-12","D1",48,"induced",NA,NA,NA,NA,518.49469,NA,NA,NA,17.83162,9.95044,NA,NA,8.2778,44.48451,NA,15.93163,NA,47.55331,"SQ2",18,"C",0.16,1934.45122,36.66557,-118.83543,2021
"49",91,1,"093-P1-C12-145.D","NA","P1-C-12","D2",1,"induced",NA,NA,NA,NA,885.31683,25.44355,10.32493,NA,NA,8.46953,NA,NA,11.86886,17.68009,NA,17.72002,NA,56.28209,"SQ1",7,"C",0.32,1921.036585,36.56435,-118.7764,2017
"50",93,1,"095-P1-E12-147.D","NA","P1-E-12","D2",2,"induced",NA,13.85908,NA,NA,903.84991,29.34322,46.03882,NA,NA,8.92711,NA,7.9175,25.37411,22.95227,NA,13.07419,NA,7.48323,"SQ2",9,"CW",0.05,1934.45122,36.66557,-118.83543,2021
"51",95,1,"097-P1-G12-149.D","NA","P1-G-12","D2",3,"induced",NA,NA,NA,78.57601,16.25497,13.38577,546.76685,NA,NA,10.70237,NA,NA,20.96443,93.44359,NA,19.96854,NA,38.52455,"CP2",13,"C",0.44,2244.132886,38.66169,-120.13065,2020
"52",97,2,"099-P2-A1-151.D","NA","P2-A-01","D2",4,"induced",NA,18.17465,NA,NA,452.31512,NA,NA,NA,25.93255,NA,NA,NA,6.0813,7.90948,NA,18.52443,NA,47.92609,"SC",19,"C",0.15,421.5178299,38.41167,-120.73583,2021
"53",98,2,"100-P2-B1-152.D","NA","P2-B-01","D2",5,"induced",NA,24.56913,NA,NA,1030.09973,24.66764,10.05993,NA,25.39242,NA,NA,NA,9.49866,271.70328,NA,24.44686,29.93268,13.68915,"SQ1",7,"CW",0.21,1921.036585,36.56435,-118.7764,2017
"54",100,2,"102-P2-D1-154.D","NA","P2-D-01","D2",6,"induced",NA,40.80079,NA,NA,397.71652,NA,NA,NA,60.0071,NA,NA,NA,6.50901,23.33759,NA,7.27924,NA,6.78559,"SC",20,"C",0.16,421.5178299,38.41167,-120.73583,2021
"55",102,2,"104-P2-F1-156.D","NA","P2-F-01","D2",7,"induced",NA,NA,NA,77.07464,11.80876,19.86656,341.54474,NA,NA,NA,NA,NA,37.38148,46.86375,NA,8.63172,NA,8.10945,"CP2",7,"CW",0.33,2244.132886,38.66169,-120.13065,2020
"56",104,2,"106-P2-H1-158.D","NA","P2-H-01","D2",8,"induced",NA,41.23554,NA,NA,845.30609,16.7428,9.75285,NA,9.72176,NA,NA,NA,35.27674,30.5481,15.23528,67.70325,NA,10.36231,"SQ2",14,"CW",0.34,1934.45122,36.66557,-118.83543,2021
"57",105,2,"107-P2-A2-159.D","NA","P2-A-02","D2",9,"induced",NA,NA,NA,33.01287,14.73846,NA,630.37439,NA,NA,24.46518,11.68671,NA,15.69422,59.95097,NA,25.70316,NA,26.01217,"LV2",2,"CW",0.29,2500.457178,40.46563,-121.51487,2018
"58",107,2,"109-P2-C2-161.D","NA","P2-C-02","D2",10,"induced",NA,NA,NA,NA,NA,21.39416,485.91031,NA,NA,NA,NA,NA,16.68384,16.9529,7.32297,22.11771,NA,49.43908,"CP2",17,"C",0.34,2244.132886,38.66169,-120.13065,2020
"59",108,2,"110-P2-D2-162.D","NA","P2-D-02","D2",11,"induced",NA,NA,NA,NA,49.07681,NA,264.56488,NA,23.33726,NA,NA,17.32318,10.75916,NA,NA,14.80557,NA,34.80387,"TM2",11,"CW",0.12,379.1526973,39.59255,-121.55072,2020
"60",110,2,"112-P2-F2-164.D","NA","P2-F-02","D2",12,"induced",NA,NA,NA,NA,11.66286,NA,429.10623,NA,NA,40.17714,NA,NA,18.84289,28.72836,NA,20.12185,NA,46.83303,"LV2",10,"CW",0.09,2500.457178,40.46563,-121.51487,2018
"61",112,2,"114-P2-H2-166.D","NA","P2-H-02","D2",13,"induced",NA,NA,NA,87.97322,14.28337,26.54496,1524.78894,9.71083,NA,120.92133,35.55731,13.51169,11.52476,436.35419,65.77213,100.99244,NA,8.24176,"LV1",9,"C",0.21,2593.416641,40.47471,-121.50486,2018
"62",114,2,"116-P2-B3-168.D","NA","P2-B-03","D2",14,"induced",NA,NA,NA,NA,17.74281,NA,985.07318,NA,NA,NA,9.83162,6.63309,NA,62.65413,NA,10.11559,NA,7.74185,"YO10",5,"CW",0.28,NA,NA,NA,NA
"63",116,2,"118-P2-D3-170.D","NA","P2-D-03","D2",15,"induced",NA,NA,129.10197,NA,NA,14.13412,630.24976,NA,NA,NA,NA,NA,10.64434,69.08279,NA,9.18423,NA,6.63065,"WL2",1,"C",0.15,2020.115818,38.8263,-120.25242,2020
"64",118,2,"120-P2-F3-172.D","NA","P2-F-03","D2",16,"induced",NA,NA,NA,66.41347,NA,11.26652,828.46246,NA,NA,83.92535,NA,16.28141,18.03131,28.83213,NA,9.97219,NA,8.29109,"LV1",10,"C",0.15,2593.416641,40.47471,-121.50486,2018
"65",120,2,"122-P2-H3-174.D","NA","P2-H-03","D2",17,"induced",NA,35.44159,NA,43.94953,166.12114,NA,402.68689,NA,27.74233,15.99103,NA,11.88593,10.28519,636.27832,NA,35.84346,NA,7.44665,"DPR",3,"CW",0.17,1018.591893,39.22846,-120.81518,2020
"66",122,2,"124-P2-B4-176.D","NA","P2-B-04","D2",18,"induced",NA,29.39281,NA,NA,601.66418,11.40157,NA,NA,NA,NA,14.43037,8.15172,16.78591,245.83968,27.30966,26.77597,NA,8.21304,"SQ2",12,"CW",0.17,1934.45122,36.66557,-118.83543,2021
"67",124,2,"126-P2-D4-178.D","NA","P2-D-04","D2",19,"induced",NA,NA,47.43738,NA,12.07771,NA,1079.81763,7.76415,NA,NA,NA,NA,11.09161,42.06924,NA,24.07632,NA,54.38713,"WL1",9,"C",0.31,1613.837245,38.78608,-120.2143,2020
"68",126,2,"128-P2-F4-180.D","NA","P2-F-04","D2",20,"induced",NA,NA,27.42556,NA,NA,NA,531.78265,NA,NA,NA,NA,NA,NA,198.58801,7.58743,23.82895,6.22499,8.38201,"WL1",9,"CW",0.28,1613.837245,38.78608,-120.2143,2020
"69",128,2,"130-P2-H4-182.D","NA","P2-H-04","D2",21,"induced",NA,NA,NA,21.73442,NA,14.45303,351.58292,NA,NA,NA,NA,NA,22.19303,53.99671,NA,13.15908,NA,7.88274,"CP2",17,"CW",0.23,2244.132886,38.66169,-120.13065,2020
"70",130,2,"132-P2-B5-184.D","NA","P2-B-05","D2",23,"induced",NA,NA,NA,26.55971,14.46469,NA,732.34485,NA,NA,46.92445,37.4972,NA,25.24624,44.38782,12.95773,25.65564,NA,8.67443,"LV1",9,"CW",0.24,2593.416641,40.47471,-121.50486,2018
"71",132,2,"134-P2-D5-186.D","NA","P2-D-05","D2",22,"induced",NA,NA,77.91547,37.96326,NA,NA,430.99686,NA,NA,NA,NA,NA,9.88404,34.14459,NA,17.81812,NA,5.97904,"WL2",11,"C",0.14,2020.115818,38.8263,-120.25242,2020
"72",134,2,"136-P2-F5-188.D","NA","P2-F-05","D2",24,"induced",NA,NA,NA,18.39369,37.85765,NA,180.28786,NA,26.48844,NA,NA,8.57885,21.22155,77.9503,NA,20.02317,NA,44.38,"MtSH",9,"CW",0.13,1282,38.66767778,-122.6272806,2022
"73",136,2,"138-P2-H5-190.D","NA","P2-H-05","D2",25,"induced",NA,36.28445,NA,NA,1069.52795,NA,15.84291,NA,39.8838,NA,NA,14.63203,8.26569,36.22773,NA,19.58584,19.57896,12.40931,"SC",18,"CW",0.12,421.5178299,38.41167,-120.73583,2021
"74",138,2,"140-P2-B6-192.D","NA","P2-B-06","D2",26,"induced",NA,84.9453,NA,NA,285.96344,NA,NA,NA,30.68962,13.16891,NA,NA,NA,28.18068,NA,14.31707,NA,8.54697,"IH",1,"C",0.23,454.1298385,39.09332,-120.92114,2020
"75",140,2,"142-P2-D6-194.D","NA","P2-D-06","D2",27,"induced",NA,NA,NA,50.63502,NA,26.78605,783.45776,8.28171,NA,NA,NA,10.38745,87.59834,66.64619,30.67146,77.24911,NA,7.03281,"CP2",2,"C",0.44,2244.132886,38.66169,-120.13065,2020
"76",142,2,"144-P2-F6-196.D","NA","P2-F-06","D2",28,"induced",NA,18.38875,NA,15.77062,261.09058,NA,288.85782,NA,8.11261,33.87576,9.22105,NA,8.72641,365.948,NA,29.05773,8.38243,11.56263,"LC",8,"CW",0.24,1362.3,39.31897,-120.65744,2022
"77",144,2,"146-P2-H6-198.D","NA","P2-H-06","D2",29,"induced",NA,NA,NA,146.28227,NA,12.1191,844.88776,NA,NA,104.96101,26.36003,14.37253,43.96533,55.32686,17.10872,44.45357,6.51974,11.35358,"LV1",10,"CW",0.33,2593.416641,40.47471,-121.50486,2018
"78",146,2,"148-P2-B7-200.D","NA","P2-B-07","D2",30,"induced",NA,16.77498,NA,NA,902.92175,NA,NA,NA,NA,15.26537,NA,NA,19.45854,156.81363,NA,24.52959,NA,9.67337,"SQ2",15,"CW",0.35,1934.45122,36.66557,-118.83543,2021
"79",148,2,"150-P2-D7-202.D","NA","P2-D-07","D2",31,"induced",NA,NA,NA,15.51735,20.10172,NA,965.86273,NA,NA,51.37709,NA,12.71319,30.42442,10.2972,NA,17.68689,NA,38.84786,"LV1",19,"C",0.13,2593.416641,40.47471,-121.50486,2018
"80",150,2,"152-P2-F7-204.D","NA","P2-F-07","D2",32,"induced",NA,NA,NA,NA,16.40797,NA,1225.77209,10.50758,NA,NA,NA,11.94934,11.22456,163.07335,NA,9.35515,NA,8.65835,"YO10",5,"C",0.31,NA,NA,NA,NA
"81",152,2,"154-P2-H7-206.D","NA","P2-H-07","D2",33,"induced",NA,NA,NA,NA,948.64471,NA,12.46357,NA,NA,17.40844,7.94471,6.8428,15.54604,522.53937,NA,32.54964,NA,9.00206,"SQ2",18,"CW",0.18,1934.45122,36.66557,-118.83543,2021
"82",154,2,"156-P2-B8-208.D","NA","P2-B-08","D2",34,"induced",NA,NA,NA,14.73717,29.81849,22.57539,1291.36865,8.56438,NA,82.2834,22.08462,NA,16.93958,138.07335,NA,26.43872,NA,9.51271,"LV2",5,"CW",0.18,2500.457178,40.46563,-121.51487,2018
"83",156,2,"158-P2-D8-210.D","NA","P2-D-08","D2",35,"induced",NA,22.9187,NA,20.84437,131.85109,NA,281.13412,NA,37.85934,NA,NA,6.81823,18.69697,113.99685,NA,10.24913,NA,6.95546,"CALO",3,"C",0.17,1117.6,39.19494,-120.77055,2022
"84",158,2,"160-P2-F8-212.D","NA","P2-F-08","D2",36,"induced",NA,NA,NA,24.4508,33.77044,NA,253.47589,NA,13.52989,10.89505,NA,13.57987,28.8496,163.87697,NA,27.28432,NA,9.06734,"CALO",14,"C",0.24,1117.6,39.19494,-120.77055,2022
"85",160,2,"162-P2-H8-214.D","NA","P2-H-08","D2",37,"induced",NA,41.60059,NA,NA,1040.27051,14.28795,13.00182,NA,NA,30.44977,NA,8.71506,10.68649,288.61102,NA,23.39476,5.86691,9.05495,"SQ2",15,"C",0.18,1934.45122,36.66557,-118.83543,2021
"86",162,2,"164-P2-B9-216.D","NA","P2-B-09","D2",38,"induced",NA,40.69653,NA,NA,891.06561,NA,NA,NA,NA,36.00873,NA,NA,49.45297,68.48183,NA,60.79624,NA,10.07508,"SQ2",18,"C",0.4,1934.45122,36.66557,-118.83543,2021
"87",164,2,"166-P2-D9-218.D","NA","P2-D-09","D2",39,"induced",NA,NA,NA,41.62629,40.3919,NA,283.24597,NA,22.36458,13.38467,NA,28.66327,18.48383,99.94135,NA,22.08705,NA,6.91104,"CALO",14,"CW",0.3,1117.6,39.19494,-120.77055,2022
"88",166,2,"168-P2-F9-220.D","NA","P2-F-09","D2",40,"induced",NA,NA,73.22379,NA,NA,NA,469.9339,NA,NA,NA,NA,NA,28.35636,30.21982,NA,15.17581,NA,9.75975,"WL2",12,"C",0.27,2020.115818,38.8263,-120.25242,2020
"89",168,2,"170-P2-H9-222.D","NA","P2-H-09","D2",41,"induced",NA,NA,224.06863,35.42372,13.48699,11.55882,442.8111,NA,NA,NA,NA,NA,9.25884,396.36249,NA,34.86601,NA,9.57318,"WL3",14,"CW",0.29,2137.762877,38.83528,-120.23824,2020
"90",170,2,"172-P2-B10-224.D","NA","P2-B-10","D2",42,"induced",NA,NA,NA,75.1249,17.17561,NA,1110.43115,8.76902,NA,109.54685,14.76631,13.11741,29.04716,36.96537,12.59168,30.56567,NA,10.78001,"LV1",19,"CW",0.18,2593.416641,40.47471,-121.50486,2018
"91",172,2,"174-P2-D10-226.D","NA","P2-D-10","D2",43,"induced",NA,NA,NA,60.95072,25.58154,NA,1379.65393,10.69815,NA,66.28093,19.46821,18.04686,32.33707,139.24141,83.04648,112.63039,NA,7.82499,"LV1",14,"CW",0.18,2593.416641,40.47471,-121.50486,2018
"92",174,2,"176-P2-F10-228.D","NA","P2-F-10","D2",44,"induced",NA,46.63496,NA,NA,412.05682,NA,15.37228,NA,34.13067,NA,NA,NA,6.77891,60.85022,NA,34.9189,NA,34.3234,"SC",7,"CW",0.14,421.5178299,38.41167,-120.73583,2021
"93",176,2,"178-P2-H10-230.D","NA","P2-H-10","D2",45,"induced",NA,24.65239,NA,20.84207,87.21907,NA,262.54288,NA,35.85295,NA,NA,15.52035,21.17782,310.14529,NA,45.58189,NA,10.45931,"CALO",1,"C",0.16,1117.6,39.19494,-120.77055,2022
"94",178,2,"180-P2-B11-232.D","NA","P2-B-11","D2",46,"induced",NA,NA,NA,54.54426,NA,26.16615,634.88953,NA,NA,NA,NA,NA,19.43993,166.84341,NA,20.13812,NA,10.19923,"CP2",15,"C",0.26,2244.132886,38.66169,-120.13065,2020
"95",180,2,"182-P2-D11-234.D","NA","P2-D-11","D2",47,"induced",NA,NA,NA,19.37794,NA,18.76945,650.31049,NA,NA,NA,NA,NA,39.93435,53.10326,10.80022,33.36295,NA,7.86833,"DPR",3,"C",0.57,1018.591893,39.22846,-120.81518,2020
"96",182,2,"184-P2-F11-236.D","NA","P2-F-11","D2",48,"induced",NA,NA,NA,37.0802,92.94505,NA,585.96155,NA,16.42114,NA,NA,22.67914,12.32071,40.36169,NA,32.93847,17.59052,15.05445,"TM2",7,"CW",0.29,379.1526973,39.59255,-121.55072,2020
"97",184,2,"186-P2-H11-238.D","NA","P2-H-11","D3",1,"induced",NA,NA,32.92039,17.41817,NA,NA,419.48306,NA,NA,NA,NA,NA,9.69219,13.25102,NA,6.70989,NA,10.37147,"WL2",10,"C",0.21,2020.115818,38.8263,-120.25242,2020
"98",186,2,"188-P2-B12-240.D","NA","P2-B-12","D3",2,"induced",NA,26.38063,NA,18.50758,36.65122,NA,67.4339,NA,NA,NA,6.25629,NA,NA,39.69078,NA,17.7727,NA,9.97253,"RB",1,"CW",0.51,787,40.01362,-121.18498,2010
"99",188,2,"190-P2-D12-242.D","NA","P2-D-12","D3",3,"induced",NA,20.67509,NA,14.80172,47.24062,NA,72.82439,NA,NA,NA,NA,NA,13.57413,108.6055,NA,18.15023,NA,7.83968,"TFC",3,"C",0.27,1085,39.42772,-120.93623,2021
"100",190,2,"192-P2-F12-244.D","NA","P2-F-12","D3",4,"induced",NA,31.43873,NA,NA,599.22467,NA,20.49561,NA,51.01878,45.06938,7.35133,12.11376,13.5891,107.96035,NA,44.0093,NA,12.86921,"BH",9,"CW",0.1,511.4294422,37.40985,-119.96458,2018
"101",192,2,"194-P2-H12-246.D","NA","P2-H-12","D3",5,"induced",NA,NA,101.63408,33.70129,NA,22.01256,389.62231,NA,NA,NA,NA,NA,20.24488,221.47336,NA,40.10144,NA,10.82282,"CP2",15,"CW",0.42,2244.132886,38.66169,-120.13065,2020
"102",2,3,"003-P1-B1-056.D","NA","P1-B-01","D3",6,"induced",NA,74.48711,NA,NA,46.47591,NA,22.2262,NA,66.21845,NA,NA,NA,7.85904,50.15068,NA,15.1502,NA,NA,"RB",20,"C",0.25,787,40.01362,-121.18498,2010
"103",4,3,"005-P1-D1-058.D","NA","P1-D-01","D3",7,"induced",NA,30.22823,NA,25.58624,124.60755,NA,382.3923,NA,35.81193,NA,NA,11.39535,15.90685,87.50574,NA,18.08673,NA,NA,"KC2",3,"C",0.47,948.1707317,36.82301,-118.83542,2017
"104",6,3,"007-P1-F1-060.D","NA","P1-F-01","D3",8,"induced","y",48.03829,NA,40.8866,143.43022,NA,300.46194,NA,NA,NA,15.70026,NA,8.2824,24.97082,NA,19.5652,NA,NA,"TM2",10,"C",0.36,379.1526973,39.59255,-121.55072,2020
"105",8,3,"009-P1-H1-062.D","NA","P1-H-01","D3",9,"induced",NA,93.3073,NA,NA,394.95715,NA,NA,NA,58.18314,NA,NA,NA,14.12268,18.65785,7.46731,31.13729,NA,35.66153,"SC",18,"C",0.06,421.5178299,38.41167,-120.73583,2021
"106",10,3,"011-P1-B2-064.D","NA","P1-B-02","D3",10,"induced",NA,NA,NA,98.49654,33.15458,21.24043,1224.78943,10.31656,NA,121.0619,9.03993,15.46268,26.03828,423.74753,NA,40.36076,NA,NA,"LV2",4,"CW",0.19,2500.457178,40.46563,-121.51487,2018
"107",12,3,"013-P1-D2-066.D","NA","P1-D-02","D3",11,"induced",NA,18.15642,NA,27.9973,63.74068,NA,170.48378,NA,NA,NA,NA,NA,18.91762,175.02406,NA,20.62888,NA,NA,"TFC",2,"C",0.18,1085,39.42772,-120.93623,2021
"108",14,3,"015-P1-F2-068.D","NA","P1-F-02","D3",12,"induced","y",52.08759,NA,NA,377.57242,NA,27.89211,NA,25.51298,NA,NA,NA,13.48226,NA,NA,31.55418,NA,41.23057,"SC",7,"C",0.09,421.5178299,38.41167,-120.73583,2021
"109",16,3,"017-P1-H2-070.D","NA","P1-H-02","D3",13,"induced",NA,80.24964,NA,45.37529,119.64648,NA,192.77373,NA,39.63194,NA,NA,10.16531,10.19588,37.48035,NA,38.00765,NA,43.34654,"RB",12,"C",0.12,787,40.01362,-121.18498,2010
"110",18,3,"019-P1-B3-072.D","NA","P1-B-03","D3",14,"induced",NA,98.75298,NA,NA,813.05627,NA,NA,NA,96.84886,NA,47.73675,12.26046,7.58762,70.44525,NA,29.80596,NA,NA,"SC",20,"CW",0.17,421.5178299,38.41167,-120.73583,2021
"111",19,3,"020-P1-C3-073.D","NA","P1-C-03","D3",15,"induced",NA,NA,NA,NA,168.49442,NA,458.70181,NA,12.6022,NA,23.53554,10.9399,10.41641,39.56096,NA,25.10294,NA,NA,"TM2",5,"CW",0.08,379.1526973,39.59255,-121.55072,2020
"112",21,3,"022-P1-E3-075.D","NA","P1-E-03","D3",16,"induced","y",NA,NA,11.38918,NA,16.78142,288.27362,NA,NA,NA,18.49526,NA,12.47705,225.08507,NA,63.39824,NA,32.87956,"CP2",2,"CW",0.24,2244.132886,38.66169,-120.13065,2020
"113",23,3,"024-P1-G3-077.D","NA","P1-G-03","D3",17,"induced",NA,16.00326,NA,12.66993,138.14221,NA,307.74442,NA,NA,NA,NA,NA,14.45084,389.55069,NA,52.95395,NA,16.95569,"DPR",3,"CW",0.12,1018.591893,39.22846,-120.81518,2020
"114",26,3,"027-P1-B4-080.D","NA","P1-B-04","D3",18,"induced","y",NA,NA,NA,NA,NA,370.4628,NA,NA,NA,NA,NA,12.83112,31.47488,NA,24.39286,NA,6.15817,"YOSE8",5,"CW",0.16,2590.97836,37.81117,-119.48624,2020
"115",27,3,"028-P1-C4-081.D","NA","P1-C-04","D3",19,"induced","y",31.84033,NA,13.29225,71.11479,NA,217.45586,NA,18.29088,NA,7.16474,NA,22.12364,165.94981,NA,53.74354,NA,42.90907,"CALO",1,"CW",0.16,1117.6,39.19494,-120.77055,2022
"116",29,3,"030-P1-E4-083.D","NA","P1-E-04","D3",20,"induced",NA,37.05444,NA,39.49047,48.1398,NA,138.83954,NA,NA,9.89365,188.76886,NA,16.46571,128.23106,52.82243,64.83763,NA,NA,"TFC",2,"CW",0.38,1085,39.42772,-120.93623,2021
"117",31,3,"032-P1-G4-085.D","NA","P1-G-04","D3",21,"induced",NA,23.99483,NA,22.29828,87.03352,NA,219.73209,NA,12.36876,NA,NA,NA,12.4117,38.94396,NA,28.17769,NA,NA,"DPR",10,"C",0.51,1018.591893,39.22846,-120.81518,2020
"118",33,3,"034-P1-A5-087.D","NA","P1-A-05","D3",22,"induced",NA,48.86951,NA,NA,193.35022,NA,61.54543,NA,24.12691,NA,9.76658,NA,NA,30.9251,NA,52.64734,NA,57.32676,"RB",12,"CW",0.26,787,40.01362,-121.18498,2010
"119",35,3,"036-P1-C5-089.D","NA","P1-C-05","D3",23,"induced","y",19.55698,NA,NA,93.97192,NA,162.83417,NA,36.10744,NA,NA,NA,20.51182,226.96419,NA,32.29014,NA,7.79443,"CALO",4,"C",0.15,1117.6,39.19494,-120.77055,2022
"120",37,3,"038-P1-E5-091.D","NA","P1-E-05","D3",24,"induced",NA,20.21799,NA,NA,926.49908,32.12833,15.49473,NA,NA,NA,NA,NA,23.98918,23.43798,NA,34.92746,NA,NA,"SQ1",5,"C",0.2,1921.036585,36.56435,-118.7764,2017
"121",39,3,"040-P1-G5-093.D","NA","P1-G-05","D3",25,"induced",NA,101.71136,NA,21.04375,607.53119,NA,452.87094,NA,28.90315,NA,52.6206,NA,NA,1036.76758,16.61243,65.40763,NA,11.04292,"LC",7,"CW",0.41,1362.3,39.31897,-120.65744,2022
"122",41,3,"042-P1-A6-095.D","NA","P1-A-06","D3",26,"induced",NA,NA,NA,37.96098,40.634,25.49934,1575.552,13.38324,82.17493,NA,40.90611,NA,42.81673,60.75003,NA,68.15504,NA,24.18946,"LV2",8,"CW",0.11,2500.457178,40.46563,-121.51487,2018
"123",43,3,"044-P1-C6-097.D","NA","P1-C-06","D3",27,"induced","y",54.01649,NA,NA,1142.42798,NA,33.15191,NA,55.53913,NA,13.53547,NA,8.28667,38.61904,NA,47.13193,NA,NA,"SC",18,"CW",0.1,421.5178299,38.41167,-120.73583,2021
"124",45,3,"046-P1-E6-099.D","NA","P1-E-06","D3",28,"induced",NA,91.68644,NA,27.81282,320.35785,NA,335.88495,NA,20.88614,NA,8.92481,9.24902,11.84902,455.65958,NA,62.4575,NA,11.90158,"LC",10,"CW",0.37,1362.3,39.31897,-120.65744,2022
"125",47,3,"048-P1-G6-101.D","NA","P1-G-06","D3",29,"induced",NA,136.20453,NA,NA,557.86572,84.69944,NA,NA,17.09467,NA,NA,NA,24.54576,66.66208,16.60269,42.10771,NA,NA,"SQ2",15,"CW",0.21,1934.45122,36.66557,-118.83543,2021
"126",49,3,"050-P1-A7-103.D","NA","P1-A-07","D3",30,"induced",NA,NA,NA,16.51841,16.69987,NA,966.85864,NA,62.62608,NA,NA,NA,14.34345,10.0893,NA,33.98424,NA,36.38832,"LV1",14,"C",0.08,2593.416641,40.47471,-121.50486,2018
"127",51,3,"052-P1-C7-105.D","NA","P1-C-07","D3",31,"induced","y",24.9567,194.03171,25.32308,212.60703,NA,483.89395,NA,NA,NA,NA,8.508,14.44397,NA,NA,22.15023,NA,5.28713,"KC2",11,"C",0.27,948.1707317,36.82301,-118.83542,2017
"128",53,3,"054-P1-E7-107.D","NA","P1-E-07","D3",32,"induced",NA,NA,NA,51.37107,NA,NA,368.67648,NA,NA,NA,NA,NA,11.58544,38.80024,NA,25.62643,NA,32.32697,"CP2",13,"CW",0.3,2244.132886,38.66169,-120.13065,2020
"129",55,3,"056-P1-G7-109.D","NA","P1-G-07","D3",33,"induced",NA,66.856,134.40587,23.04888,304.01434,NA,524.24683,NA,54.22534,NA,NA,23.39249,9.42917,NA,NA,14.75478,NA,7.63928,"KC2",11,"CW",0.13,948.1707317,36.82301,-118.83542,2017
"130",57,3,"058-P1-A8-111.D","NA","P1-A-08","D3",34,"induced",NA,17.09461,NA,21.62481,63.3452,NA,204.5083,NA,16.63164,NA,NA,NA,25.90218,11.18628,NA,22.88002,NA,35.42923,"CALO",15,"C",0.17,1117.6,39.19494,-120.77055,2022
"131",59,3,"060-P1-C8-113.D","NA","P1-C-08","D3",35,"induced",NA,NA,197.08757,NA,17.34886,NA,638.68549,NA,NA,NA,NA,NA,10.71441,52.61631,NA,28.94375,NA,35.18685,"WL1",2,"C",0.19,1613.837245,38.78608,-120.2143,2020
"132",61,3,"062-P1-E8-115.D","NA","P1-E-08","D3",36,"induced",NA,NA,NA,71.87326,33.89256,NA,881.16498,NA,58.98361,NA,NA,NA,24.87029,14.7171,NA,22.42697,NA,34.53046,"LV2",8,"C",0.12,2500.457178,40.46563,-121.51487,2018
"133",63,3,"064-P1-G8-117.D","NA","P1-G-08","D3",37,"induced",NA,24.27959,NA,NA,522.35645,NA,132.97873,NA,34.1317,NA,10.07574,NA,26.90035,101.96323,NA,48.74755,NA,28.0017,"BH",5,"CW",0.17,511.4294422,37.40985,-119.96458,2018
"134",65,3,"066-P1-A9-119.D","NA","P1-A-09","D3",38,"induced",NA,NA,NA,NA,NA,NA,760.71338,NA,NA,NA,NA,NA,27.53815,NA,NA,29.69757,NA,28.38777,"MtSH",9,"CW",0.28,1282,38.66767778,-122.6272806,2022
"135",67,3,"068-P1-C9-121.D","NA","P1-C-09","D3",39,"induced",NA,100.03138,NA,NA,421.86566,NA,31.47626,NA,54.24597,NA,45.59708,NA,7.01771,153.93898,13.67264,27.16072,NA,5.72285,"SC",7,"CW",0.15,421.5178299,38.41167,-120.73583,2021
"136",69,3,"070-P1-E9-123.D","NA","P1-E-09","D3",40,"induced",NA,NA,NA,46.84695,NA,20.27149,295.78854,NA,NA,NA,NA,NA,21.12856,29.91165,NA,20.59672,NA,5.46657,"CP2",14,"C",0.38,2244.132886,38.66169,-120.13065,2020
"137",71,3,"072-P1-G9-125.D","NA","P1-G-09","D3",41,"induced",NA,NA,NA,87.2592,26.85467,NA,1864.04272,20.98427,109.86611,NA,145.29639,21.26746,50.88174,135.92429,95.86389,151.94122,NA,7.45049,"LV1",13,"CW",0.27,2593.416641,40.47471,-121.50486,2018
"138",73,3,"074-P1-A10-127.D","NA","P1-A-10","D3",42,"induced",NA,50.26302,NA,NA,440.00131,NA,NA,NA,18.83926,NA,NA,NA,15.08541,23.90671,NA,19.95772,NA,6.30765,"SC",20,"C",0.16,421.5178299,38.41167,-120.73583,2021
"139",75,3,"076-P1-C10-129.D","NA","P1-C-10","D3",43,"induced",NA,NA,NA,22.81797,15.76996,NA,224.77121,NA,10.44512,NA,NA,NA,17.92488,95.20817,NA,21.60954,NA,8.56166,"CALO",15,"CW",0.43,1117.6,39.19494,-120.77055,2022
"140",77,3,"078-P1-E10-131.D","NA","P1-E-10","D3",44,"induced",NA,NA,NA,NA,536.27502,NA,NA,NA,NA,NA,14.36691,NA,9.96828,112.18395,NA,21.18388,NA,5.08049,"SQ1",2,"CW",0.31,1921.036585,36.56435,-118.7764,2017
"141",79,3,"080-P1-G10-133.D","NA","P1-G-10","D3",45,"induced",NA,38.10444,NA,NA,176.50146,NA,145.46979,NA,15.0233,18.03984,NA,NA,NA,45.05825,NA,32.49084,NA,41.11108,"LC",10,"C",0.26,1362.3,39.31897,-120.65744,2022
"142",81,3,"082-P1-A11-135.D","NA","P1-A-11","D3",46,"induced",NA,34.61031,NA,79.32322,55.38614,NA,344.41403,NA,33.06126,NA,9.38288,20.58773,23.01731,697.00739,NA,83.72917,NA,6.06892,"CALO",4,"CW",0.46,1117.6,39.19494,-120.77055,2022
"143",83,3,"084-P1-C11-137.D","NA","P1-C-11","D3",47,"induced",NA,NA,NA,52.8986,NA,NA,743.21387,NA,NA,36.18993,20.80879,NA,42.32788,56.9788,NA,30.09777,NA,7.59196,NA,NA,NA,NA,NA,NA,NA,NA
"144",85,3,"086-P1-E11-139.D","NA","P1-E-11","D3",48,"induced",NA,21.55285,NA,15.52655,86.09489,NA,258.08923,NA,31.39343,NA,NA,NA,21.3649,47.32018,NA,31.16782,NA,33.21774,"CALO",3,"CW",0.22,1117.6,39.19494,-120.77055,2022
"145",87,3,"088-P1-G11-141.D","NA","P1-G-11","D4",1,"induced",NA,66.09306,NA,NA,793.48242,NA,40.10754,NA,42.50298,NA,NA,NA,11.92142,9.25007,NA,23.82084,NA,8.8498,"SC",19,"CW",0.07,421.5178299,38.41167,-120.73583,2021
"146",89,3,"090-P1-A12-143.D","NA","P1-A-12","D4",2,"induced",NA,122.89047,NA,NA,593.94885,NA,17.28439,NA,46.46416,NA,NA,NA,NA,NA,NA,19.41444,NA,41.67396,"IH",1,"CW",0.1,454.1298385,39.09332,-120.92114,2020
"147",91,3,"092-P1-C12-145.D","NA","P1-C-12","D4",3,"induced",NA,NA,164.66798,21.68218,NA,43.61164,391.90387,NA,NA,NA,NA,9.2727,42.12585,NA,15.70787,63.66779,NA,8.36614,"WL2",11,"CW",0.32,2020.115818,38.8263,-120.25242,2020
"148",93,3,"094-P1-E12-147.D","NA","P1-E-12","D4",4,"induced",NA,25.21057,NA,27.8444,39.09104,NA,130.90157,NA,11.66581,NA,NA,NA,17.46644,168.97736,NA,35.80042,NA,30.5197,"CALO",2,"CW",0.45,1117.6,39.19494,-120.77055,2022
"149",95,3,"096-P1-G12-149.D","NA","P1-G-12","D4",5,"induced",NA,42.23251,NA,97.35549,202.36172,NA,1115.31506,13.39762,25.8687,12.10653,33.43277,21.50473,12.49886,85.75535,NA,44.32329,NA,9.28654,"TM2",11,"C",0.28,379.1526973,39.59255,-121.55072,2020
"150",1,4,"002-P1-A1-120.D","NA","P1-A-01","D4",11,"induced",NA,NA,NA,23.92521,22.53256,NA,252.46712,NA,21.81034,NA,NA,45.06731,13.23376,NA,NA,29.36211,NA,9.71622,"TM2",3,"CW",0.14,379.1526973,39.59255,-121.55072,2020
"151",3,4,"004-P1-C1-122.D","NA","P1-C-01","D4",12,"induced",NA,17.23614,NA,NA,107.46447,NA,119.57926,NA,37.78591,NA,NA,NA,7.37303,12.6566,NA,9.43705,NA,9.7636,"CP2",11,"C",0.23,2244.132886,38.66169,-120.13065,2020
"152",5,4,"006-P1-E1-124.D","NA","P1-E-01","D4",13,"induced",NA,NA,NA,28.57827,15.48263,NA,981.41779,9.50987,NA,57.59153,NA,8.42368,30.31212,24.25251,NA,17.59289,NA,7.68715,"BH",7,"C",0.07,511.4294422,37.40985,-119.96458,2018
"153",7,4,"008-P1-G1-126.D","NA","P1-G-01","D4",14,"induced",NA,NA,NA,NA,637.69391,35.9874,30.37357,NA,NA,9.66639,NA,NA,10.9045,96.75838,NA,21.05511,NA,40.30977,"LC",10,"CW",0.33,1362.3,39.31897,-120.65744,2022
"154",9,4,"010-P1-A2-128.D","NA","P1-A-02","D4",15,"induced",NA,NA,NA,NA,12.26025,18.38055,592.94489,NA,NA,NA,NA,NA,16.06401,33.29599,NA,39.44908,NA,68.74369,"TM2",9,"C",0.17,379.1526973,39.59255,-121.55072,2020
"155",11,4,"012-P1-C2-130.D","NA","P1-C-02","D4",16,"induced",NA,NA,NA,36.48586,NA,NA,212.90941,NA,NA,NA,NA,NA,16.12886,450.77869,NA,49.77603,35.74632,15.42371,"CP2",14,"CW",0.24,2244.132886,38.66169,-120.13065,2020
"156",12,4,"013-P1-D2-131.D","NA","P1-D-02","D4",18,"induced",NA,NA,NA,44.49602,13.89088,NA,1082.75269,11.30369,NA,85.75382,NA,29.11982,25.72775,22.56154,NA,35.48731,NA,36.48065,"DPR",10,"CW",0.23,1018.591893,39.22846,-120.81518,2020
"157",15,4,"016-P1-G2-134.D","NA","P1-G-02","D4",20,"induced",NA,35.88238,NA,NA,259.59073,NA,274.08383,NA,33.00901,25.25982,NA,NA,10.82043,23.90289,27.58732,97.40516,NA,10.41095,"TFC",2,"CW",0.29,1085,39.42772,-120.93623,2021
"158",17,4,"018-P1-A3-136.D","NA","P1-A-03","D4",21,"induced",NA,NA,NA,NA,19.4637,NA,880.19733,NA,NA,NA,NA,NA,9.70947,31.84776,39.89124,42.34639,NA,47.94014,"LV2",9,"C",0.14,2500.457178,40.46563,-121.51487,2018
"159",19,4,"020-P1-C3-138.D","NA","P1-C-03","D4",22,"induced",NA,NA,NA,20.96597,NA,NA,666.88116,NA,NA,32.77559,NA,NA,24.19585,NA,NA,16.54038,NA,10.13019,"TM2",7,"C",0.24,379.1526973,39.59255,-121.55072,2020
"160",20,4,"021-P1-D3-139.D","NA","P1-D-03","D4",23,"induced",NA,28.54118,NA,NA,366.14075,NA,13.28656,NA,NA,95.37057,NA,NA,14.0241,9.77207,NA,42.63807,NA,85.21955,"TM2",11,"C",0.15,379.1526973,39.59255,-121.55072,2020
"161",21,4,"022-P1-E3-140.D","NA","P1-E-03","D4",24,"induced",NA,44.99855,NA,NA,253.67984,NA,41.04061,NA,NA,87.95624,NA,11.72419,8.11348,15.67885,16.52942,25.52154,NA,7.914,"YOSE8",1,"CW",0.09,2590.97836,37.81117,-119.48624,2020
"162",22,4,"023-P1-F3-141.D","NA","P1-F-03","D4",25,"induced",NA,NA,NA,13.17282,48.64711,48.01941,1810.14172,19.54569,NA,136.22035,NA,NA,15.65189,123.04906,18.00585,84.32391,NA,16.05604,NA,NA,NA,NA,NA,NA,NA,NA
"163",24,4,"025-P1-H3-143.D","NA","P1-H-03","D4",27,"induced",NA,142.31555,NA,51.6772,804.13525,NA,287.96729,NA,NA,143.28021,NA,69.24629,37.38031,416.81073,NA,108.22887,34.47942,16.60418,"LV2",9,"CW",0.11,2500.457178,40.46563,-121.51487,2018
"164",26,4,"027-P1-B4-145.D","NA","P1-B-04","D4",28,"induced",NA,NA,NA,NA,NA,32.06412,1103.8772,10.43533,NA,NA,NA,NA,26.23447,141.978,NA,64.4868,13.61101,26.77859,"IH",9,"CW",0.2,454.1298385,39.09332,-120.92114,2020
"165",28,4,"029-P1-D4-147.D","NA","P1-D-04","D4",29,"induced",NA,NA,NA,NA,15.99045,NA,834.44733,NA,NA,45.2158,NA,NA,27.29073,NA,18.84243,45.76891,NA,35.0733,"IH",1,"C",0.09,454.1298385,39.09332,-120.92114,2020
"166",29,4,"030-P1-E4-148.D","NA","P1-E-04","D4",30,"induced",NA,NA,NA,51.73941,17.52366,NA,258.49966,NA,NA,24.22189,NA,71.76653,30.55096,51.65844,NA,48.15413,NA,80.46079,"IH",10,"CW",0.17,454.1298385,39.09332,-120.92114,2020
"167",30,4,"031-P1-F4-149.D","NA","P1-F-04","D4",31,"induced",NA,NA,NA,44.27076,17.25258,NA,146.90495,NA,NA,34.13763,NA,62.79377,31.76365,NA,10.44703,70.39075,NA,29.74275,"WL2",1,"CW",0.13,2020.115818,38.8263,-120.25242,2020
"168",33,4,"034-P1-A5-152.D","NA","P1-A-05","D4",32,"induced",NA,NA,NA,32.72529,20.0274,NA,949.37311,NA,NA,61.84292,NA,NA,24.70724,25.19585,94.48354,84.19849,28.72757,21.44018,"RB",1,"C",0.17,787,40.01362,-121.18498,2010
"169",35,4,"036-P1-C5-154.D","NA","P1-C-05","D4",33,"induced",NA,NA,NA,NA,1204.8269,NA,25.2327,NA,NA,NA,NA,10.55875,12.39777,330.73792,NA,54.03927,NA,8.35714,"RB",12,"C",0.14,787,40.01362,-121.18498,2010
"170",37,4,"038-P1-E5-156.D","NA","P1-E-05","D4",34,"induced",NA,NA,NA,NA,659.14868,NA,86.48318,NA,16.49276,16.01743,NA,NA,16.19418,NA,10.02994,85.62591,NA,25.66798,"LC",1,"C",0.29,1362.3,39.31897,-120.65744,2022
"171",39,4,"040-P1-G5-158.D","NA","P1-G-05","D4",35,"induced",NA,197.85596,NA,NA,1577.27576,57.4822,30.70094,NA,8.01208,11.31947,NA,9.57843,25.50745,214.92563,51.10747,101.88332,29.91314,16.97767,"IH",10,"C",0.14,454.1298385,39.09332,-120.92114,2020
"172",41,4,"042-P1-A6-160.D","NA","P1-A-06","D4",36,"induced",NA,NA,NA,78.79494,NA,26.85981,1023.58588,NA,NA,71.50494,NA,35.35194,25.89827,40.50755,NA,47.8175,NA,73.94879,"WL3",1,"CW",0.32,2137.762877,38.83528,-120.23824,2020
"173",42,4,"043-P1-B6-161.D","NA","P1-B-06","D4",37,"induced",NA,NA,NA,74.28226,NA,NA,605.82324,NA,NA,62.08115,NA,26.57166,42.66348,NA,18.08109,51.86441,NA,10.93943,"CP2",11,"CW",0.68,2244.132886,38.66169,-120.13065,2020
"174",44,4,"045-P1-D6-163.D","NA","P1-D-06","D4",38,"induced",NA,NA,NA,NA,NA,NA,442.77219,NA,NA,NA,NA,10.25578,22.71957,11.8741,7.79533,51.43486,NA,49.16248,"TM2",4,"CW",0.34,379.1526973,39.59255,-121.55072,2020
"175",46,4,"047-P1-F6-165.D","NA","P1-F-06","D4",39,"induced",NA,NA,61.58524,NA,42.83333,NA,920.04736,8.49087,NA,NA,NA,NA,25.59414,25.52615,6.5338,42.57584,NA,10.3138,"SC",20,"CW",0.12,421.5178299,38.41167,-120.73583,2021
"176",48,4,"049-P1-H6-167.D","NA","P1-H-06","D4",40,"induced",NA,NA,NA,48.8013,31.55354,21.76881,1649.13538,21.67637,NA,89.9798,NA,NA,26.66435,130.8242,30.37891,96.11808,NA,13.75374,"CALO",17,"C",0.15,1117.6,39.19494,-120.77055,2022
"177",50,4,"051-P1-B7-169.D","NA","P1-B-07","D4",41,"induced",NA,NA,35.88474,24.40074,NA,15.23972,428.67313,NA,NA,NA,NA,NA,16.46754,25.31389,NA,26.84329,NA,41.59339,"CALO",17,"CW",0.16,1117.6,39.19494,-120.77055,2022
"178",52,4,"053-P1-D7-171.D","NA","P1-D-07","D4",42,"induced",NA,NA,89.30921,NA,501.53,14.01386,667.93585,NA,NA,15.0946,NA,NA,23.26021,74.27368,NA,37.3548,10.66143,13.52248,"SQ1",2,"C",0.16,1921.036585,36.56435,-118.7764,2017
"179",54,4,"055-P1-F7-173.D","NA","P1-F-07","D4",43,"induced",NA,NA,NA,30.20579,27.18941,NA,1531.9071,22.69885,NA,31.33564,NA,14.41383,16.79689,88.85563,26.43199,50.44066,NA,28.72253,"BH",5,"C",0.32,511.4294422,37.40985,-119.96458,2018
"180",56,4,"057-P1-H7-175.D","NA","P1-H-07","D4",44,"induced",NA,NA,NA,NA,58.73165,NA,280.0354,NA,13.85468,10.02432,NA,9.65252,17.99688,NA,NA,112.41267,NA,14.72027,"WL3",1,"C",0.16,2137.762877,38.83528,-120.23824,2020
"181",57,4,"058-P1-A8-176.D","NA","P1-A-08","D4",45,"induced",NA,NA,NA,30.31368,NA,13.4717,475.36383,NA,NA,NA,NA,NA,24.1123,307.43484,NA,49.99352,21.491,15.34224,"RB",12,"CW",0.1,787,40.01362,-121.18498,2010
"182",59,4,"060-P1-C8-178.D","NA","P1-C-08","D4",46,"induced",NA,NA,NA,102.71612,15.12551,NA,598.79858,NA,NA,92.2245,NA,15.35625,7.9987,49.97748,NA,30.87375,NA,36.39329,"WL2",11,"C",0.1,2020.115818,38.8263,-120.25242,2020
"183",61,4,"062-P1-E8-180.D","NA","P1-E-08","D4",47,"induced",NA,15.18536,NA,NA,106.26087,NA,674.63892,NA,76.06673,NA,NA,8.4068,29.15818,45.84792,48.0951,67.07842,NA,9.34602,"TM2",5,"C",0.11,379.1526973,39.59255,-121.55072,2020
"184",63,4,"064-P1-G8-182.D","NA","P1-G-08","D4",48,"induced",NA,34.16689,NA,NA,2272.79224,71.08192,34.27076,NA,15.96179,17.42082,NA,9.8217,26.91584,217.52196,24.71034,92.67952,24.64573,16.54341,"CALO",16,"C",0.26,1117.6,39.19494,-120.77055,2022
"185",65,4,"066-P1-A9-184.D","NA","P1-A-09","D5",1,"induced",NA,24.69597,NA,NA,336.14673,NA,475.46875,NA,51.18671,29.48215,NA,NA,31.46628,28.46794,12.44309,79.81142,NA,11.4399,"CALO",18,"C",0.2,1117.6,39.19494,-120.77055,2022
"186",67,4,"068-P1-C9-186.D","NA","P1-C-09","D5",2,"induced",NA,25.23861,NA,67.20361,23.7506,NA,195.70665,NA,39.91206,31.02456,NA,51.47334,36.5839,17.91347,18.52914,81.4672,NA,9.59767,"LV2",5,"C",0.18,2500.457178,40.46563,-121.51487,2018
"187",68,4,"069-P1-D9-187.D","NA","P1-D-09","D5",3,"induced",NA,NA,NA,94.30883,NA,36.6807,309.18973,NA,NA,NA,NA,15.06297,21.10706,22.69039,NA,36.14654,NA,34.78889,"TM2",7,"CW",0.12,379.1526973,39.59255,-121.55072,2020
"188",70,4,"071-P1-F9-189.D","NA","P1-F-09","D5",4,"induced",NA,125.41475,NA,NA,430.68674,NA,NA,NA,115.58228,NA,NA,NA,NA,12.06741,NA,39.67817,24.31217,14.24169,"YOSE8",1,"C",0.17,2590.97836,37.81117,-119.48624,2020
"189",72,4,"073-P1-H9-191.D","NA","P1-H-09","D5",5,"induced",NA,47.18037,NA,NA,992.28894,60.14174,378.7179,NA,NA,31.80552,NA,13.4956,30.62553,106.64635,18.44673,149.97202,NA,9.929,"IH",1,"CW",0.25,454.1298385,39.09332,-120.92114,2020
"190",74,4,"075-P1-B10-193.D","NA","P1-B-10","D5",6,"induced",NA,NA,NA,NA,NA,44.51485,948.0882,11.79684,NA,NA,NA,14.0351,59.31232,26.73878,23.21161,59.69187,NA,10.48352,"SQ2",17,"C",0.35,1934.45122,36.66557,-118.83543,2021
"191",76,4,"077-P1-D10-195.D","NA","P1-D-10","D5",7,"induced",NA,NA,NA,80.95077,NA,NA,433.46686,NA,NA,53.38821,NA,18.3457,48.72227,10.50989,9.34715,43.58305,NA,12.31852,"CALO",16,"CW",0.09,1117.6,39.19494,-120.77055,2022
"192",78,4,"079-P1-F10-197.D","NA","P1-F-10","D5",8,"induced",NA,NA,NA,NA,15.55797,NA,1211.64844,9.66063,NA,NA,NA,12.60147,21.25885,64.34612,12.6978,51.1538,NA,12.57433,"SQ1",3,"C",0.09,1921.036585,36.56435,-118.7764,2017
"193",80,4,"081-P1-H10-199.D","NA","P1-H-10","D5",9,"induced",NA,24.61815,NA,NA,117.79003,NA,461.59506,NA,79.61486,NA,NA,NA,36.78617,NA,11.78513,58.32275,NA,14.191,"WL1",2,"CW",0.23,1613.837245,38.78608,-120.2143,2020
"194",82,4,"083-P1-B11-201.D","NA","P1-B-11","D5",10,"induced",NA,NA,120.30284,60.8937,NA,NA,168.03502,NA,NA,NA,NA,NA,11.46307,198.63205,NA,40.09261,22.29155,19.01385,"BH",7,"CW",0.11,511.4294422,37.40985,-119.96458,2018
"195",83,4,"084-P1-C11-202.D","NA","P1-C-11","D5",11,"induced",NA,NA,186.7682,26.45994,NA,32.60522,650.5661,NA,NA,NA,NA,NA,13.29637,41.99581,20.34225,40.49522,NA,10.21986,"LV2",2,"CW",0.19,2500.457178,40.46563,-121.51487,2018
"196",85,4,"086-P1-E11-204.D","NA","P1-E-11","D5",12,"induced",NA,42.77325,NA,14.84098,97.54661,NA,375.1626,NA,111.96899,NA,NA,19.09227,53.85435,NA,14.98194,117.979,NA,15.00362,"CALO",18,"CW",0.43,1117.6,39.19494,-120.77055,2022
"197",87,4,"088-P1-G11-206.D","NA","P1-G-11","D5",13,"induced",NA,NA,NA,12.23769,NA,35.29243,135.83527,NA,NA,NA,NA,NA,15.94639,NA,9.08699,21.06363,NA,14.41653,"SQ1",3,"CW",0.22,1921.036585,36.56435,-118.7764,2017
"198",89,4,"090-P1-A12-208.D","NA","P1-A-12","D4",10,"induced",NA,30.74951,NA,29.59467,61.65189,NA,210.37416,NA,20.43958,NA,NA,12.64296,10.44502,13.85369,NA,35.85932,NA,34.28445,"BH",17,"CW",0.22,511.4294422,37.40985,-119.96458,2018
"199",90,4,"091-P1-B12-209.D","NA","P1-B-12","D4",9,"induced",NA,72.18227,NA,50.09686,42.52314,NA,111.42523,NA,21.6802,NA,NA,NA,9.26218,43.98367,NA,27.39306,NA,60.90774,"TFC",2,"C",0.32,1085,39.42772,-120.93623,2021
"200",92,4,"093-P1-D12-211.D","NA","P1-D-12","D4",8,"induced",NA,NA,NA,NA,490.5155,19.34674,275.05652,NA,NA,170.93268,NA,10.09293,12.59403,500.88483,NA,48.97874,11.83894,8.26044,"TM2",11,"CW",0.21,379.1526973,39.59255,-121.55072,2020
"201",94,4,"095-P1-F12-213.D","NA","P1-F-12","D4",7,"induced",NA,34.48925,NA,34.21427,124.04211,NA,441.5639,NA,36.99097,NA,NA,15.21435,12.77162,31.26264,NA,43.78922,NA,70.65614,"YOSE8",5,"C",0.22,2590.97836,37.81117,-119.48624,2020
"202",96,4,"097-P1-H12-215.D","NA","P1-H-12","D4",6,"induced",NA,NA,121.3089,24.87183,NA,26.34065,507.9147,NA,NA,NA,NA,NA,23.24371,25.65088,11.60603,27.61186,NA,16.0059,"LV2",2,"C",0.16,2500.457178,40.46563,-121.51487,2018
"203",97,5,"098-P2-A1-216.D","NA","P2-A-01","D5",14,"induced",NA,17.67878,NA,20.21354,87.19962,NA,605.63318,NA,26.50781,NA,NA,31.9303,8.96358,33.45518,NA,47.76357,NA,30.99535,"WL3",14,"C",0.21,2137.762877,38.83528,-120.23824,2020
"204",99,5,"100-P2-C1-218.D","NA","P2-C-01","D5",15,"induced",NA,NA,NA,31.6897,NA,22.18838,865.10889,NA,NA,NA,NA,19.11201,26.54036,89.18877,NA,58.75656,16.94483,20.1669,"DPR",10,"C",0.2,1018.591893,39.22846,-120.81518,2020
"205",101,5,"102-P2-E1-220.D","NA","P2-E-01","D5",16,"induced",NA,32.02591,NA,NA,482.02649,NA,44.48919,NA,28.22353,26.94882,NA,NA,7.43085,41.31725,NA,49.10357,NA,57.3707,"LC",1,"CW",0.1,1362.3,39.31897,-120.65744,2022
"206",103,5,"104-P2-G1-222.D","NA","P2-G-01","D5",17,"induced",NA,108.40416,NA,NA,896.70038,20.85991,16.41623,NA,NA,NA,NA,11.23543,44.37265,95.81077,NA,157.49535,NA,11.52218,"TFC",3,"C",0.25,1085,39.42772,-120.93623,2021
"207",105,5,"106-P2-A2-224.D","NA","P2-A-02","D5",18,"induced",NA,16.99352,NA,27.65107,112.77805,NA,416.3038,NA,29.85018,NA,NA,23.95439,9.16117,74.94034,NA,68.96446,NA,38.56384,"TFC",1,"CW",0.29,1085,39.42772,-120.93623,2021
"208",107,5,"108-P2-C2-226.D","NA","P2-C-02","D5",19,"induced",NA,NA,NA,62.58635,NA,NA,225.57936,NA,NA,NA,NA,NA,29.60489,44.85447,NA,52.26649,NA,43.35909,"CP2",14,"C",0.18,2244.132886,38.66169,-120.13065,2020
"209",109,5,"110-P2-E2-228.D","NA","P2-E-02","D5",20,"induced",NA,28.52306,NA,17.0871,101.9727,NA,418.88065,NA,39.12373,NA,NA,NA,15.96889,26.7266,27.40757,83.39035,NA,6.67257,"CALO",2,"C",0.26,1117.6,39.19494,-120.77055,2022
"210",111,5,"112-P2-G2-230.D","NA","P2-G-02","D5",21,"induced",NA,56.78205,NA,67.91064,49.21812,NA,175.51997,NA,27.56,NA,NA,NA,21.1071,125.51842,NA,70.59915,NA,44.08303,"WL2",11,"CW",0.28,2020.115818,38.8263,-120.25242,2020
"211",112,5,"113-P2-H2-231.D","NA","P2-H-02","D5",22,"induced",NA,NA,NA,13.48585,47.50547,33.039,1212.23547,10.97625,NA,112.2141,NA,NA,19.802,20.14065,79.50632,68.26844,NA,91.05952,"SQ2",17,"C",0.21,1934.45122,36.66557,-118.83543,2021
"212",114,5,"115-P2-B3-233.D","NA","P2-B-03","D5",23,"induced",NA,33.10261,NA,NA,299.80963,NA,NA,NA,62.78505,NA,NA,NA,NA,NA,NA,60.30733,NA,88.32576,"LC",1,"C",0.3,1362.3,39.31897,-120.65744,2022
"213",116,5,"117-P2-D3-235.D","NA","P2-D-03","D5",24,"induced",NA,NA,NA,29.53494,20.18681,NA,536.49133,NA,28.04794,NA,NA,49.63608,13.15114,45.47428,NA,95.49467,NA,80.22502,"YO10",5,"CW",0.43,NA,NA,NA,NA
"214",118,5,"119-P2-F3-237.D","NA","P2-F-03","D5",25,"induced",NA,24.88098,NA,NA,338.54361,NA,138.47664,NA,60.53103,NA,NA,NA,21.15788,33.96011,NA,77.35586,NA,47.70156,"LV1",10,"C",0.3,2593.416641,40.47471,-121.50486,2018
"215",120,5,"121-P2-H3-239.D","NA","P2-H-03","D5",26,"induced",NA,NA,NA,NA,34.32335,29.93956,1791.53198,20.5798,NA,107.48951,NA,13.61746,25.69685,364.98895,12.79983,90.01038,27.59266,26.32937,"CP2",7,"C",0.36,2244.132886,38.66169,-120.13065,2020
"216",122,5,"123-P2-B4-241.D","NA","P2-B-04","D5",27,"induced",NA,40.03468,NA,NA,416.20627,NA,NA,NA,45.6015,NA,NA,NA,11.50203,19.64931,NA,76.62127,NA,46.97392,"SQ1",5,"CW",0.4,1921.036585,36.56435,-118.7764,2017
"217",123,5,"124-P2-C4-242.D","NA","P2-C-04","D5",28,"induced",NA,46.82732,NA,NA,177.18735,NA,22.48878,NA,33.32777,NA,NA,NA,NA,NA,NA,81.43002,NA,102.80748,"IH",9,"C",0.3,454.1298385,39.09332,-120.92114,2020
"218",125,5,"126-P2-E4-244.D","NA","P2-E-04","D5",29,"induced",NA,60.59251,NA,NA,373.15808,NA,NA,NA,24.80745,NA,NA,NA,9.90102,14.25257,NA,76.99364,NA,47.47741,"CP2",17,"C",0.49,2244.132886,38.66169,-120.13065,2020
"219",127,5,"128-P2-G4-246.D","NA","P2-G-04","D5",30,"induced",NA,NA,56.04687,183.00667,NA,33.51288,698.68066,NA,NA,NA,NA,NA,22.25628,72.72129,51.55773,170.03613,NA,49.89531,"CALO",1,"C",0.24,1117.6,39.19494,-120.77055,2022
"220",129,5,"130-P2-A5-248.D","NA","P2-A-05","D5",31,"induced",NA,57.51705,NA,42.54118,79.29086,NA,215.48482,NA,56.91203,NA,NA,18.88638,10.95524,45.87605,NA,49.74499,NA,11.18889,"LC",1,"CW",0.05,1362.3,39.31897,-120.65744,2022
"221",131,5,"132-P2-C5-250.D","NA","P2-C-05","D5",32,"induced",NA,38.98315,NA,NA,97.11104,NA,52.45895,NA,39.98735,NA,NA,NA,9.68906,16.04176,NA,63.89079,NA,56.08852,"SQ2",17,"CW",0.32,1934.45122,36.66557,-118.83543,2021
"222",133,5,"134-P2-E5-252.D","NA","P2-E-05","D5",33,"induced",NA,13.83114,NA,NA,212.14485,NA,435.80133,NA,NA,46.09146,NA,NA,20.87817,76.92356,NA,98.29665,NA,65.88895,"CALO",1,"CW",0.22,1117.6,39.19494,-120.77055,2022
"223",134,5,"135-P2-F5-253.D","NA","P2-F-05","D5",34,"induced",NA,111.28701,NA,NA,222.28719,NA,20.73967,NA,35.71129,NA,NA,NA,15.23293,NA,NA,110.98053,NA,38.55617,"LV1",19,"CW",0.15,2593.416641,40.47471,-121.50486,2018
"224",136,5,"137-P2-H5-255.D","NA","P2-H-05","D5",35,"induced",NA,NA,NA,NA,42.43285,NA,1568.92542,15.39668,NA,NA,NA,NA,10.08062,61.5944,17.67485,49.33968,NA,10.81085,"CP2",7,"CW",0.52,2244.132886,38.66169,-120.13065,2020
"225",138,5,"139-P2-B6-257.D","NA","P2-B-06","D5",36,"induced",NA,NA,NA,66.72554,NA,NA,572.05267,NA,NA,NA,NA,NA,23.39224,609.94281,NA,74.41832,29.58036,22.00725,"TM2",3,"C",0.28,379.1526973,39.59255,-121.55072,2020
"226",140,5,"141-P2-D6-259.D","NA","P2-D-06","D5",37,"induced",NA,21.19555,NA,12.05131,465.95059,NA,793.78912,NA,38.82234,22.03906,NA,39.90657,12.25414,75.07811,21.05948,102.30046,NA,9.03778,"LV1",13,"CW",0.15,2593.416641,40.47471,-121.50486,2018
"227",141,5,"142-P2-E6-260.D","NA","P2-E-06","D5",38,"induced",NA,25.53666,NA,NA,593.83698,NA,NA,NA,26.81561,NA,NA,NA,NA,NA,13.46239,22.10063,NA,9.40888,"SQ2",9,"CW",0.39,1934.45122,36.66557,-118.83543,2021
"228",143,5,"144-P2-G6-262.D","NA","P2-G-06","D5",39,"induced",NA,21.85658,NA,41.71041,63.99485,NA,336.27917,NA,23.85478,19.0929,NA,20.87787,25.76801,10.18877,23.55862,65.24863,NA,11.68213,"CP2",15,"C",0.37,2244.132886,38.66169,-120.13065,2020
"229",145,5,"146-P2-A7-264.D","NA","P2-A-07","D5",40,"induced",NA,NA,NA,27.12888,59.37583,NA,366.38852,NA,19.87164,NA,NA,25.97847,13.9346,116.6337,NA,51.09354,NA,11.16513,"LV2",10,"CW",0.3,2500.457178,40.46563,-121.51487,2018
"230",146,5,"147-P2-B7-265.D","NA","P2-B-07","D5",41,"induced",NA,NA,NA,27.81493,35.73802,NA,387.09464,NA,15.39573,NA,NA,25.14973,12.71755,268.4971,NA,55.23009,23.58414,27.0403,"TFC",3,"CW",0.44,1085,39.42772,-120.93623,2021
"231",148,5,"149-P2-D7-267.D","NA","P2-D-07","D5",43,"induced",NA,NA,NA,NA,808.49933,NA,NA,NA,14.1334,NA,NA,NA,14.6176,NA,NA,15.9169,NA,10.20192,"WL1",11,"C",0.16,1613.837245,38.78608,-120.2143,2020
"232",150,5,"151-P2-F7-269.D","NA","P2-F-07","D5",44,"induced",NA,49.17345,NA,NA,167.60677,NA,NA,NA,35.79068,NA,NA,NA,13.76793,NA,NA,75.03303,NA,74.47739,"YOSE8",5,"C",0.19,2590.97836,37.81117,-119.48624,2020
"233",152,5,"153-P2-H7-271.D","NA","P2-H-07","D5",45,"induced",NA,NA,NA,NA,24.77261,31.6494,965.92883,NA,NA,NA,NA,NA,15.72164,42.35916,NA,28.36898,NA,83.29463,"LV2",2,"C",0.25,2500.457178,40.46563,-121.51487,2018
"234",154,5,"155-P2-B8-273.D","NA","P2-B-08","D5",46,"induced",NA,NA,38.27229,16.52837,14.15634,22.84266,452.49365,NA,NA,NA,NA,12.09259,25.00598,NA,17.5354,93.88608,NA,9.70745,"SQ2",12,"CW",0.43,1934.45122,36.66557,-118.83543,2021
"235",156,5,"157-P2-D8-275.D","NA","P2-D-08","D5",47,"induced",NA,NA,NA,NA,61.40265,NA,423.57709,NA,NA,NA,NA,NA,20.98177,NA,19.16614,158.01237,NA,7.24828,"BH",17,"C",0.16,511.4294422,37.40985,-119.96458,2018
"236",158,5,"159-P2-F8-277.D","NA","P2-F-08","D5",48,"induced",NA,NA,NA,14.92052,49.35406,NA,514.35651,NA,22.56851,NA,NA,16.29963,19.30218,37.14428,14.35832,87.12953,NA,46.94698,"LC",10,"C",0.14,1362.3,39.31897,-120.65744,2022
"237",160,5,"161-P2-H8-279.D","NA","P2-H-08","D6",1,"induced",NA,NA,NA,75.1606,NA,NA,153.73087,NA,NA,NA,NA,39.61592,25.87471,19.85874,27.76761,108.17542,NA,45.13916,"DPR",4,"C",0.56,1018.591893,39.22846,-120.81518,2020
"238",162,5,"163-P2-B9-281.D","NA","P2-B-09","D6",2,"induced",NA,NA,NA,22.95923,49.98322,NA,919.56348,NA,NA,62.8006,NA,14.46367,26.98479,NA,81.51327,97.9767,NA,48.89291,"LV1",14,"C",0.31,2593.416641,40.47471,-121.50486,2018
"239",164,5,"165-P2-D9-283.D","NA","P2-D-09","D6",3,"induced",NA,NA,NA,NA,30.31216,NA,249.00137,NA,NA,NA,NA,15.80192,10.14652,18.76669,NA,91.97922,NA,122.10751,"CALO",18,"C",0.21,1117.6,39.19494,-120.77055,2022
"240",167,5,"168-P2-G9-286.D","NA","P2-G-09","D6",5,"induced",NA,43.64252,NA,NA,233.89444,NA,NA,NA,39.50008,NA,NA,NA,NA,NA,21.30409,85.27642,NA,56.79868,"CP2",14,"CW",0.41,2244.132886,38.66169,-120.13065,2020
"241",168,5,"169-P2-H9-287.D","NA","P2-H-09","D6",6,"induced",NA,67.24567,NA,NA,273.17181,NA,NA,NA,24.20741,NA,NA,NA,NA,NA,NA,60.65739,NA,66.0415,"CALO",18,"CW",0.33,1117.6,39.19494,-120.77055,2022
"242",169,5,"170-P2-A10-288.D","NA","P2-A-10","D6",7,"induced",NA,NA,NA,NA,662.06891,19.51532,NA,NA,NA,NA,NA,NA,27.97562,21.76685,NA,67.70444,NA,63.04531,"TM2",6,"CW",0.5,379.1526973,39.59255,-121.55072,2020
"243",171,5,"172-P2-C10-290.D","NA","P2-C-10","D6",8,"induced",NA,NA,NA,NA,99.14249,NA,1008.07733,NA,8.81228,17.34185,NA,23.61438,42.30326,NA,NA,171.38751,NA,8.94906,"LV2",8,"CW",0.04,2500.457178,40.46563,-121.51487,2018
"244",173,5,"174-P2-E10-292.D","NA","P2-E-10","D6",9,"induced",NA,NA,NA,NA,1097.15247,15.825,NA,NA,NA,NA,NA,NA,13.8195,27.33688,NA,58.96185,NA,13.035,"SC",7,"C",0.06,421.5178299,38.41167,-120.73583,2021
"245",174,5,"175-P2-F10-293.D","NA","P2-F-10","D6",4,"induced",NA,NA,NA,NA,784.66394,14.01665,NA,NA,NA,NA,NA,NA,NA,40.73564,NA,52.78137,NA,47.2972,"LV2",10,"C",0.16,2500.457178,40.46563,-121.51487,2018
"246",175,5,"176-P2-G10-294.D","NA","P2-G-10","D6",10,"induced",NA,NA,109.89437,NA,23.58444,NA,522.19464,NA,NA,NA,NA,NA,19.21941,39.42099,19.99461,80.87325,NA,75.8355,"LV1",10,"CW",0.06,2593.416641,40.47471,-121.50486,2018
"247",177,5,"178-P2-A11-296.D","NA","P2-A-11","D6",11,"induced",NA,NA,NA,NA,296.65546,NA,41.67213,NA,17.28284,39.88994,NA,NA,NA,43.73999,NA,74.14562,NA,100.74377,"YO10",5,"C",0.34,NA,NA,NA,NA
"248",179,5,"180-P2-C11-298.D","NA","P2-C-11","D6",12,"induced",NA,NA,NA,54.79696,34.41756,NA,533.92438,NA,NA,55.0992,NA,9.4424,15.20023,52.48858,NA,70.35163,NA,120.94405,"LC",3,"C",0.28,1362.3,39.31897,-120.65744,2022
"249",181,5,"182-P2-E11-300.D","NA","P2-E-11","D6",13,"induced",NA,NA,NA,16.15219,NA,NA,222.50514,NA,NA,NA,NA,26.86708,9.65696,191.46414,NA,73.65251,28.01398,33.36773,"LV2",4,"C",0.07,2500.457178,40.46563,-121.51487,2018
"250",182,5,"183-P2-F11-301.D","NA","P2-F-11","D6",14,"induced",NA,17.48316,NA,NA,1289.0813,15.39783,36.53189,NA,NA,NA,NA,NA,13.34556,108.05408,13.75869,113.23907,22.96449,36.31155,"CP2",13,"CW",0.12,2244.132886,38.66169,-120.13065,2020
"251",184,5,"185-P2-H11-303.D","NA","P2-H-11","D6",15,"induced",NA,NA,50.9123,NA,NA,14.44473,378.0506,NA,NA,NA,NA,NA,20.1889,NA,25.74005,61.7542,NA,13.63705,"CP2",7,"C",0.09,2244.132886,38.66169,-120.13065,2020
"252",186,5,"187-P2-B12-305.D","NA","P2-B-12","D6",16,"induced",NA,73.1967,NA,84.84103,59.67419,NA,92.73213,NA,NA,NA,NA,NA,12.27633,180.85385,NA,53.22643,14.26021,28.3109,"SQ2",14,"C",0.07,1934.45122,36.66557,-118.83543,2021
"253",188,5,"189-P2-D12-307.D","NA","P2-D-12","D6",17,"induced",NA,20.37601,NA,24.69839,207.93367,NA,680.93994,NA,30.69762,NA,NA,23.83221,9.31282,94.46045,10.03295,101.00033,NA,12.00209,"LV2",9,"CW",0.17,2500.457178,40.46563,-121.51487,2018
"254",190,5,"191-P2-F12-309.D","NA","P2-F-12","D6",18,"induced",NA,NA,NA,NA,20.17159,NA,999.35858,NA,NA,16.65192,NA,43.20602,16.66133,55.54607,NA,26.06858,NA,37.40582,"DPR",4,"CW",0.21,1018.591893,39.22846,-120.81518,2020
"255",192,5,"193-P2-H12-311.D","NA","P2-H-12","D6",19,"induced",NA,NA,NA,79.12533,NA,NA,423.05466,NA,NA,57.62777,NA,NA,NA,NA,NA,20.88729,NA,80.40266,"TM2",9,"C",0.15,379.1526973,39.59255,-121.55072,2020
"256",2,6,"003-P1-B1-121.D","NA","P1-B-01","D6",20,"induced",NA,54.16393,NA,NA,376.37576,NA,16.81881,NA,73.47164,NA,NA,122.15978,22.71209,13.61416,8.24628,28.0709,NA,NA,"SC",18,"C",0.07,421.5178299,38.41167,-120.73583,2021
